intercept location (deg),v_infinity wrt Titian magnitude (km/s),v_infinity x component,v_infinity y component,v_infinity z component
0,15.425984763239956,0.0,15.329694000144785,1.7208973756840507
1,15.425448028421922,0.09720990385566916,15.328845662165886,1.7208973756840507
2,15.423837875415202,0.19439019663293042,15.326300906641148,1.7208973756840507
3,15.421154458565855,0.2915112762731972,15.322060508727763,1.7208973756840507
4,15.417398035130313,0.388543558754778,15.316125760092007,1.7208973756840507
5,15.412568965294945,0.485457487104456,15.308498468515808,1.7208973756840507
6,15.406667712203493,0.5822235404008299,15.299180957346067,1.7208973756840507
7,15.39969484199251,0.6788122427666715,15.28817606478695,1.7208973756840507
8,15.391651023834823,0.7751941723475645,15.275487143035331,1.7208973756840507
9,15.382537029991237,0.8713399702740859,15.261118057259702,1.7208973756840507
10,15.372353735870526,0.967220349604802,15.245073184422784,1.7208973756840507
11,15.36110212009795,1.0628061042473547,15.227357411948274,1.7208973756840507
12,15.348783264592436,1.1580681178549197,15.207976136232084,1.7208973756840507
13,15.335398354652666,1.2529773726953282,15.186935260998546,1.7208973756840507
14,15.320948679052297,1.3475049584901493,15.164241195502086,1.7208973756840507
15,15.305435630144554,1.4416220812210405,15.139900852574897,1.7208973756840507
16,15.288860703976516,1.5353000719006855,15.113921646521222,1.7208973756840507
17,15.27122550041338,1.628510395305644,15.086311490858893,1.7208973756840507
18,15.252531723273048,1.721224658668457,15.05707879590879,1.7208973756840507
19,15.232781180471402,1.8134146203263628,15.02623246623298,1.7208973756840507
20,15.211975784178646,1.9050521983239748,14.993781897922295,1.7208973756840507
21,15.190117550987168,1.9961094789673226,14.959736975734199,1.7208973756840507
22,15.167208602091335,2.08655872532663,14.924108070081791,1.7208973756840507
23,15.14325116347972,2.176372385685255,14.88690603387488,1.7208973756840507
24,15.11824756614028,2.265523101932207,14.848142199214072,1.7208973756840507
25,15.092200246279036,2.353983717895696,14.807828373938925,1.7208973756840507
26,15.065111745552805,2.4417272876151612,14.765976838031147,1.7208973756840507
27,15.036984711316618,2.5287270835492754,14.722600339873996,1.7208973756840507
28,15.007821896886533,2.614956604717412,14.67771209236901,1.7208973756840507
29,14.977626161818414,2.7003895847720973,14.63132576891122,1.7208973756840507
30,14.946400472203537,2.7849999999999997,14.583455499224108,1.7208973756840507
31,14.91414790098173,2.8687620772490017,14.53411586505555,1.7208973756840507
32,14.88087162827286,2.9516503017789515,14.48332189573608,1.7208973756840507
33,14.84657494172759,3.033639425033701,14.431089063600798,1.7208973756840507
34,14.811261236898266,3.1147044723320603,14.377433279276367,1.7208973756840507
35,14.774934017630928,3.1948207504753268,14.32237088683447,1.7208973756840507
36,14.737596896479438,3.2739638552690757,14.265918658813241,1.7208973756840507
37,14.699253595142864,3.352109678956909,14.208093791108206,1.7208973756840507
38,14.659907944927141,3.429234417563917,14.148913897734227,1.7208973756840507
39,14.619563887232333,3.5053145781475945,14.088397005460113,1.7208973756840507
40,14.578225474066645,3.5803269859540237,14.026561548317492,1.7208973756840507
41,14.535896868588583,3.6542487914771256,13.963426361985626,1.7208973756840507
42,14.492582345678615,3.7270574774188407,13.899010678053871,1.7208973756840507
43,14.448286292541836,3.7987308655481167,13.833334118163565,1.7208973756840507
44,14.403013209343172,3.869247123456615,13.766416688031072,1.7208973756840507
45,14.356767709876758,3.93858477120907,13.698278771353856,1.7208973756840507
46,14.309554522271208,4.006722687886287,13.6289411236014,1.7208973756840507
47,14.261378489732609,4.07364011801878,13.558424865692903,1.7208973756840507
48,14.21224457132712,4.139316677909086,13.486751477563626,1.7208973756840507
49,14.162157842805227,4.20373236184084,13.41394279162191,1.7208973756840507
50,14.111123497469729,4.266867548172708,13.34002098609881,1.7208973756840507
51,14.059146847089714,4.328703005315328,13.265008578292381,1.7208973756840507
52,14.006233322862913,4.389219897589442,13.188928417708702,1.7208973756840507
53,13.952388476428844,4.448399790963421,13.111803679101694,1.7208973756840507
54,13.897617980935415,4.506224658668457,13.03365785541386,1.7208973756840507
55,13.841927632161735,4.562676886689685,12.954514750620111,1.7208973756840507
56,13.785323349700036,4.617739279131583,12.874398472476845,1.7208973756840507
57,13.72781117819977,4.671395063456012,12.793333425178487,1.7208973756840507
58,13.669397288677123,4.723627895591293,12.711344301923736,1.7208973756840507
59,13.610087979893382,4.774421864910766,12.628456077393787,1.7208973756840507
60,13.549889679805693,4.823761499079323,12.544694000144785,1.7208973756840507
61,13.4888089470941,4.871631768766434,12.460083584916884,1.7208973756840507
62,13.42685247276879,4.918018092224223,12.374650604862197,1.7208973756840507
63,13.364027081861865,4.962906339729209,12.288421083694061,1.7208973756840507
64,13.30033973520802,5.006282837886361,12.201421287759947,1.7208973756840507
65,13.235797531318944,5.048134373794141,12.113677718040481,1.7208973756840507
66,13.170407708356363,5.088448199069287,12.025217102076992,1.7208973756840507
67,13.10417764620904,5.1272120337300935,11.93606638583004,1.7208973756840507
68,13.037114868679284,5.164414069937006,11.846252725471414,1.7208973756840507
69,12.969227045784857,5.2000429755894135,11.755803479112108,1.7208973756840507
70,12.900521996182505,5.23408789777751,11.66474619846876,1.7208973756840507
71,12.831007689719714,5.266538466088194,11.573108620471148,1.7208973756840507
72,12.76069225012162,5.297384795764005,11.480918658813243,1.7208973756840507
73,12.689583957820453,5.326617490714107,11.38820439545043,1.7208973756840507
74,12.617691252935314,5.354227646376437,11.294994072045471,1.7208973756840507
75,12.545022738410514,5.380206852430111,11.201316081365826,1.7208973756840507
76,12.471587183321203,5.404547195357301,11.107198958634934,1.7208973756840507
77,12.397393526355527,5.42724126085376,11.012671372840114,1.7208973756840507
78,12.322450879483092,5.448282136087298,10.917762117999706,1.7208973756840507
79,12.246768531820086,5.467663411803489,10.822500104392141,1.7208973756840507
80,12.170355953702021,5.485379184277999,10.726914349749588,1.7208973756840507
81,12.09322280097572,5.501424057114917,10.631033970418871,1.7208973756840507
82,12.01537891952284,5.515793142890547,10.53488817249235,1.7208973756840507
83,11.936834350027976,5.528482064642164,10.438506242911457,1.7208973756840507
84,11.857599333005162,5.539486957201283,10.341917540545616,1.7208973756840507
85,11.777684314097396,5.548804468371023,10.245151487249242,1.7208973756840507
86,11.697099949664711,5.5564317599472215,10.148237558899563,1.7208973756840507
87,11.615857112677244,5.5623665085829765,10.051205276417983,1.7208973756840507
88,11.533966898930702,5.5666069064963635,9.954084196777716,1.7208973756840507
89,11.451440633602743,5.5691516620211,9.856903904000454,1.7208973756840507
90,11.36828987816982,5.57,9.759694000144785,1.7208973756840507
91,14.669454477155758,3.4107948589402213,14.16325828719987,1.7208973756840507
92,14.629349983424321,3.487128172073052,14.103061024877379,1.7208973756840507
93,14.588250150349383,3.562399272184099,14.041540730884012,1.7208973756840507
94,14.54615911432761,3.636585230967102,13.97871614489728,1.7208973756840507
95,14.50308112333749,3.70966345066036,13.914606403894673,1.7208973756840507
96,14.459020537534393,3.78161167093023,13.849231036324342,1.7208973756840507
97,14.41398182987782,3.8524079756518392,13.782609956156556,1.7208973756840507
98,14.367969586792483,3.9220307995848382,13.714763456817819,1.7208973756840507
99,14.32098850886449,3.990458934942832,13.645712205008849,1.7208973756840507
100,14.273043411575559,4.057671537852799,13.575477234409975,1.7208973756840507
101,14.224139226075605,4.123648134704787,13.50407993927362,1.7208973756840507
102,14.17428099999689,4.188368628388268,13.431542067907525,1.7208973756840507
103,14.123473898311278,4.251813304413904,13.357885716050001,1.7208973756840507
104,14.07172320423297,4.313962836918775,13.283133320139344,1.7208973756840507
105,14.019034320168997,4.374798294553224,13.207307650479493,1.7208973756840507
106,13.965412768719926,4.434301146247528,13.130431804303967,1.7208973756840507
107,13.910864193733376,4.4924532668566455,13.052529198740224,1.7208973756840507
108,13.855394361413055,4.549236942681306,12.973623563676576,1.7208973756840507
109,13.799009161486213,4.604634876863777,12.893738934533843,1.7208973756840507
110,13.741714608432584,4.658630194656569,12.81289964494405,1.7208973756840507
111,13.683516842777529,4.711206448562994,12.731130319337655,1.7208973756840507
112,13.624422132454054,4.762347623346703,12.648455865443482,1.7208973756840507
113,13.564436874235508,4.8120381409104445,12.564901466701075,1.7208973756840507
114,13.503567595243984,4.860262865041203,12.4804925745897,1.7208973756840507
115,13.441820954537947,4.907007106020846,12.395254900875582,1.7208973756840507
116,13.37920374478326,4.952256625100749,12.309214409779848,1.7208973756840507
117,13.315722894012096,4.99599763883906,12.222397310069582,1.7208973756840507
118,13.251385467474368,5.038216823299264,12.134830047074367,1.7208973756840507
119,13.186198669586597,5.078901318108787,12.046539294630799,1.7208973756840507
120,13.12016984598343,5.1180387303763935,11.957551946957363,1.7208973756840507
121,13.053306485677416,5.155617138467111,11.867895110462346,1.7208973756840507
122,12.985616223332192,5.191625095633929,11.777596095486377,1.7208973756840507
123,12.917106841656855,5.226051633504216,11.686682407984312,1.7208973756840507
124,12.847786273925843,5.2588862654210375,11.595181741146062,1.7208973756840507
125,12.77766260663282,5.2901189896374365,11.503121966961134,1.7208973756840507
126,12.706744082285178,5.319740292363059,11.410531127728548,1.7208973756840507
127,12.635039102346939,5.347741150662144,11.31743742751488,1.7208973756840507
128,12.562556230338231,5.374113035202005,11.223869223563037,1.7208973756840507
129,12.489304195099871,5.398847912851142,11.129855017654357,1.7208973756840507
130,12.415291894232245,5.42193824912621,11.035423447426695,1.7208973756840507
131,12.340528397718074,5.443377010487099,10.940603277651123,1.7208973756840507
132,12.265022951739287,5.4631576664794155,10.845423391469897,1.7208973756840507
133,12.188784982698973,5.4812741917236965,10.749912781598532,1.7208973756840507
134,12.111824101459085,5.497721067750914,10.654100541493715,1.7208973756840507
135,12.0341501078079,5.5124932846832735,10.558015856492093,1.7208973756840507
136,11.955772995167628,5.5255863427603975,10.461687994919512,1.7208973756840507
137,11.876702955557622,5.536996253709959,10.365146299175752,1.7208973756840507
138,11.796950384826928,5.546719541962553,10.268420176796559,1.7208973756840507
139,11.716525888171537,5.554753245710385,10.171539091495816,1.7208973756840507
140,11.635440285952615,5.561094917809472,10.074532554190617,1.7208973756840507
141,11.553704619832839,5.565742626525056,9.977430114011945,1.7208973756840507
142,11.471330159249112,5.568694956120041,9.880261349303732,1.7208973756840507
143,11.388328408240929,5.569951007286233,9.783055858613002,1.7208973756840507
144,11.304711112654882,5.569510397418276,9.685843251673871,1.7208973756840507
145,11.220490267747138,5.567373260730212,9.588653140388292,1.7208973756840507
146,11.135678126206034,5.563540248214572,9.491515129805347,1.7208973756840507
147,11.050287206621263,5.558012527444101,9.394458809104213,1.7208973756840507
148,10.964330302422718,5.550791782216093,9.297513742580383,1.7208973756840507
149,10.877820491318383,5.541880212039493,9.200709460640248,1.7208973756840507
150,10.790771145259487,5.531280531464908,9.104075450805851,1.7208973756840507
151,10.703195940963699,5.51899596925772,9.007641148732702,1.7208973756840507
152,10.615108871028925,5.505030267414581,8.911435929243394,1.7208973756840507
153,10.52652425567204,5.489387680023562,8.815489097379741,1.7208973756840507
154,10.437456755129006,5.472072971968314,8.71982987947619,1.7208973756840507
155,10.347921382754812,5.453091417476643,8.624487414257185,1.7208973756840507
156,10.25793351886407,5.43244879851396,8.529490743961388,1.7208973756840507
157,10.167508925354364,5.410151403021905,8.434868805494517,1.7208973756840507
158,10.076663761159834,5.386206023003174,8.340650421615805,1.7208973756840507
159,9.985414598579954,5.360619952452487,8.2468642921577,1.7208973756840507
160,9.893778440536005,5.333400985134792,8.153538985283754,1.7208973756840507
161,9.801772738807433,5.304557412211208,8.060702928786512,1.7208973756840507
162,9.709415413303953,5.274098019713462,7.968384401428099,1.7208973756840507
163,9.61672487243192,5.242032085867577,7.876611524326262,1.7208973756840507
164,9.523720034616277,5.208369378267632,7.785412252388389,1.7208973756840507
165,9.430420351042253,5.173120150900457,7.69481436579618,1.7208973756840507
166,9.336845829683789,5.136295141022179,7.6048454615435315,1.7208973756840507
167,9.24301706068862,5.0979055658876,7.5155329450303725,1.7208973756840507
168,9.148955243191613,5.05796311933307,7.426904021714131,1.7208973756840507
169,9.054682213633658,5.016479968214801,7.338985688823565,1.7208973756840507
170,8.960220475660604,4.973468748702481,7.251804727134555,1.7208973756840507
171,8.865593231684073,4.928942562430232,7.1653876928125735,1.7208973756840507
172,8.770824416184649,4.882914972505729,7.079760909323415,1.7208973756840507
173,8.675938730840352,4.8353999993787395,6.994950459414815,1.7208973756840507
174,8.580961681563934,4.786412116570368,6.910982177171395,1.7208973756840507
175,8.485919617532598,4.735966246264272,6.827881640145343,1.7208973756840507
176,8.390839772293015,4.68407775476123,6.745674161565251,1.7208973756840507
177,8.29575030702262,4.630762447798406,6.664384782625458,1.7208973756840507
178,8.200680356025083,4.57603656573478,6.584038264858253,1.7208973756840507
179,8.105660074533324,4.519916778604261,6.504659082591415,1.7208973756840507
180,4.5293513434580746,0.0,4.189694000144785,1.7208973756840507
181,10.403501578556204,5.465058966897918,8.68357574998421,1.7208973756840507
182,10.31379249821987,5.445445758870302,8.588361217712123,1.7208973756840507
183,10.22363686766427,5.4241738153132495,8.49350348475221,1.7208973756840507
184,10.13305059773313,5.401249615866972,8.39903144568946,1.7208973756840507
185,10.042050002402098,5.376680143464626,8.304973877621826,1.7208973756840507
186,9.95065181545501,5.350472882205428,8.211359431395401,1.7208973756840507
187,9.858873208106989,5.322635815075203,8.118216622877974,1.7208973756840507
188,9.766731807625408,5.293177421514081,8.025573824270708,1.7208973756840507
189,9.674245717013015,5.262106674834304,7.933459255468113,1.7208973756840507
190,9.581433535803448,5.2294330394860955,7.841900975459582,1.7208973756840507
191,9.488314382041208,5.195166468175513,7.750926873784746,1.7208973756840507
192,9.394907915501644,5.159317398831901,7.660564662035667,1.7208973756840507
193,9.301234362228705,5.121896751429295,7.570841865417993,1.7208973756840507
194,9.207314540451547,5.08291592465915,7.481785814364152,1.7208973756840507
195,9.113169887963256,5.042386792459172,7.3934236362105805,1.7208973756840507
196,9.01882249102818,5.000321700395516,7.305782246932438,1.7208973756840507
197,8.924295114903869,4.9567334619025765,7.2188883429456165,1.7208973756840507
198,8.829611236054888,4.91163535438033,7.1327683929755965,1.7208973756840507
199,8.734795076137367,4.86504111514891,7.047448629992841,1.7208973756840507
200,8.639871637845134,4.816964937265257,6.962955043224222,1.7208973756840507
201,8.544866742691527,4.767421465198567,6.879313370234226,1.7208973756840507
202,8.44980707082018,4.7164257903706925,6.796549089087245,1.7208973756840507
203,8.354720202917232,4.663993446557859,6.714687410584535,1.7208973756840507
204,8.25963466431476,4.610140405160258,6.6337532705869116,1.7208973756840507
205,8.164579971351912,4.554883070335634,6.553771322416916,1.7208973756840507
206,8.069586680074599,4.498238274003825,6.474765929351287,1.7208973756840507
207,7.974686437327486,4.440223270718154,6.396761157197577,1.7208973756840507
208,7.8799120343023015,4.380855732411004,6.319780766965547,1.7208973756840507
209,7.785297462574465,4.320153743009464,6.243848207627526,1.7208973756840507
210,7.6908779726618715,4.258135792927334,6.168986608976423,1.7208973756840507
211,7.596690135109354,4.194820773433394,6.095218774580875,1.7208973756840507
212,7.502771904078684,4.1302279708955165,6.022567174837366,1.7208973756840507
213,7.409162683405843,4.0643770609075,5.951053940127441,1.7208973756840507
214,7.315903395035522,3.9972881022940085,5.880700854074691,1.7208973756840507
215,7.223036549720732,3.92898153100218,5.811529346911112,1.7208973756840507
216,7.130606319807005,3.859478153874884,5.7435604889474146,1.7208973756840507
217,7.038658613882664,3.788799142314542,5.676814984156606,1.7208973756840507
218,6.947241152990089,3.7169660258322965,5.611313163865591,1.7208973756840507
219,6.856403548034303,3.6440006854917604,5.547074980563784,1.7208973756840507
220,6.7661973779164555,3.5699253472421986,5.4841200018238965,1.7208973756840507
221,6.676676267833482,3.49476257514898,5.422467404342109,1.7208973756840507
222,6.587895967057531,3.418535264521093,5.36213596809726,1.7208973756840507
223,6.49991442537625,3.341266634935287,5.303144070628879,1.7208973756840507
224,6.412791867236316,3.262980223165157,5.245509681440788,1.7208973756840507
225,6.326590862450619,3.1836998760095936,5.189250356525875,1.7208973756840507
226,6.2413763921646455,3.1034497430308647,5.134383233019871,1.7208973756840507
227,6.157215908559277,3.0222542691963525,5.0809250239797485,1.7208973756840507
228,6.074179386569089,2.9401381874344743,5.028892013294191,1.7208973756840507
229,5.992339365646568,2.8571265110986768,4.97830005072197,1.7208973756840507
230,5.9117709793777955,2.7732445263502634,4.929164547065309,1.7208973756840507
231,5.8325519704878275,2.6885177844541035,4.881500469474441,1.7208973756840507
232,5.754762688536956,2.602972093996265,4.835322336888984,1.7208973756840507
233,5.67848606735291,2.5166335130233177,4.790644215615764,1.7208973756840507
234,5.603807579012977,2.4295283411028445,4.747479715043034,1.7208973756840507
235,5.530815160994504,2.341683111314587,4.705841983496094,1.7208973756840507
236,5.459599112935716,2.253124582165942,4.665743704231057,1.7208973756840507
237,5.390251959360433,2.1638797294433503,4.627197091572489,1.7208973756840507
238,5.322868274679318,2.0739757379929045,4.590213887191763,1.7208973756840507
239,5.257544466869355,1.9834399934419058,4.554805356531439,1.7208973756840507
240,5.194378516415649,1.892300073854594,4.520982285372736,1.7208973756840507
241,5.133469667457268,1.8005837413339614,4.488754976551,1.7208973756840507
242,5.074918068577824,1.7083189335630737,4.45813324681658,1.7208973756840507
243,5.018824361395576,1.615533755295864,4.429126423844899,1.7208973756840507
244,4.965289216007579,1.522256469797067,4.4017433433954185,1.7208973756840507
245,4.914412813463924,1.4285154902308357,4.3759923466195305,1.7208973756840507
246,4.866294276787236,1.3343393710082458,4.351881277520478,1.7208973756840507
247,4.82103105357409,1.2397567990869036,4.329417480563319,1.7208973756840507
248,4.778718254926318,1.144796585235074,4.3086077984383655,1.7208973756840507
249,4.739447957273899,1.0494876552531787,4.2894585699762455,1.7208973756840507
250,4.703308475545036,0.9538590411651886,4.271975628217575,1.7208973756840507
251,4.670383617993702,0.8579398723727077,4.256164298635661,1.7208973756840507
252,4.6407519347514645,0.7617593667843646,4.242029397514766,1.7208973756840507
253,4.614485973689628,0.6653468219132567,4.229575230482606,1.7208973756840507
254,4.5916515583809385,0.5687316059551489,4.218805591199187,1.7208973756840507
255,4.5723071037031024,0.4719431488404408,4.209723760200919,1.7208973756840507
